Code(LSB),Voltage(V),
83162.000000000000,3.172378540039
84676.000000000000,3.230133056641
86169.000000000000,3.287086486816
87643.000000000000,3.343315124512
89091.000000000000,3.398551940918
90521.000000000000,3.453102111816
91926.000000000000,3.506698608398
93306.000000000000,3.559341430664
94662.000000000000,3.611068725586
95995.000000000000,3.661918640137
97305.000000000000,3.711891174316
98584.000000000000,3.760681152344
99843.000000000000,3.808708190918
101076.000000000000,3.855743408203
102277.000000000000,3.901557922363
103459.000000000000,3.946647644043
104615.000000000000,3.990745544434
105738.000000000000,4.033584594727
106838.000000000000,4.075546264648
107911.000000000000,4.116477966309
108953.000000000000,4.156227111816
109973.000000000000,4.195137023926
110959.000000000000,4.232749938965
111919.000000000000,4.269371032715
112850.000000000000,4.304885864258
113752.000000000000,4.339294433594
114627.000000000000,4.372673034668
115468.000000000000,4.404754638672
116283.000000000000,4.435844421387
117066.000000000000,4.465713500977
117823.000000000000,4.494590759277
118548.000000000000,4.522247314453
119237.000000000000,4.548530578613
119902.000000000000,4.573898315430
120536.000000000000,4.598083496094
121132.000000000000,4.620819091797
121704.000000000000,4.642639160156
122246.000000000000,4.663314819336
122751.000000000000,4.682579040527
123230.000000000000,4.700851440430
123673.000000000000,4.717750549316
124087.000000000000,4.733543395996
124466.000000000000,4.748001098633
124821.000000000000,4.761543273926
125136.000000000000,4.773559570312
125420.000000000000,4.784393310547
125672.000000000000,4.794006347656
125893.000000000000,4.802436828613
126080.000000000000,4.809570312500
126238.000000000000,4.815597534180
126361.000000000000,4.820289611816
126450.000000000000,4.823684692383
126507.000000000000,4.825859069824
126537.000000000000,4.827003479004
126531.000000000000,4.826774597168
126493.000000000000,4.825325012207
126422.000000000000,4.822616577148
126322.000000000000,4.818801879883
126187.000000000000,4.813652038574
126018.000000000000,4.807205200195
125814.000000000000,4.799423217773
125581.000000000000,4.790534973145
125319.000000000000,4.780540466309
125021.000000000000,4.769172668457
124696.000000000000,4.756774902344
124332.000000000000,4.742889404297
123939.000000000000,4.727897644043
123514.000000000000,4.711685180664
123060.000000000000,4.694366455078
122574.000000000000,4.675827026367
122052.000000000000,4.655914306641
121502.000000000000,4.634933471680
120920.000000000000,4.612731933594
120309.000000000000,4.589424133301
119664.000000000000,4.564819335937
118990.000000000000,4.539108276367
118287.000000000000,4.512290954590
117551.000000000000,4.484214782715
116787.000000000000,4.455070495605
115994.000000000000,4.424819946289
115166.000000000000,4.393234252930
114313.000000000000,4.360694885254
113428.000000000000,4.326934814453
112519.000000000000,4.292259216309
111577.000000000000,4.256324768066
110602.000000000000,4.219131469727
109607.000000000000,4.181175231934
108583.000000000000,4.142112731934
107527.000000000000,4.101829528809
106445.000000000000,4.060554504395
105336.000000000000,4.018249511719
104196.000000000000,3.974761962891
103036.000000000000,3.930511474609
101845.000000000000,3.885078430176
100633.000000000000,3.838844299316
99390.000000000000,3.791427612305
98125.000000000000,3.743171691895
96830.000000000000,3.693771362305
95517.000000000000,3.643684387207
94174.000000000000,3.592453002930
92809.000000000000,3.540382385254
91422.000000000000,3.487472534180
90010.000000000000,3.433609008789
88573.000000000000,3.378791809082
87112.000000000000,3.323059082031
85633.000000000000,3.266639709473
84131.000000000000,3.209342956543
82608.000000000000,3.151245117187
81062.000000000000,3.092269897461
79493.000000000000,3.032417297363
77909.000000000000,2.971992492676
76301.000000000000,2.910652160645
74676.000000000000,2.848663330078
73030.000000000000,2.785873413086
71363.000000000000,2.722282409668
69684.000000000000,2.658233642578
67983.000000000000,2.593345642090
66267.000000000000,2.527885437012
64536.000000000000,2.461853027344
62786.000000000000,2.395095825195
61014.000000000000,2.327499389648
59235.000000000000,2.259635925293
57432.000000000000,2.190856933594
55620.000000000000,2.121734619141
53796.000000000000,2.052154541016
51954.000000000000,1.981887817383
50101.000000000000,1.911201477051
48234.000000000000,1.839981079102
46355.000000000000,1.768302917480
44463.000000000000,1.696128845215
42561.000000000000,1.623573303223
40646.000000000000,1.550521850586
38724.000000000000,1.477203369141
36788.000000000000,1.403350830078
34847.000000000000,1.329307556152
32894.000000000000,1.254806518555
30930.000000000000,1.179885864258
28965.000000000000,1.104927062988
26991.000000000000,1.029624938965
25003.000000000000,0.953788757324
23017.000000000000,0.878028869629
21020.000000000000,0.801849365234
19020.000000000000,0.725555419922
17014.000000000000,0.649032592773
15004.000000000000,0.572357177734
12990.000000000000,0.495529174805
10975.000000000000,0.418663024902
8954.000000000000,0.341567993164
6930.000000000000,0.264358520508
4908.000000000000,0.187225341797
2884.000000000000,0.110015869141
858.000000000000,0.032730102539
-1174.000000000000,-0.044784545898
-3196.000000000000,-0.121917724609
-5218.000000000000,-0.199050903320
-7245.000000000000,-0.276374816895
-9264.000000000000,-0.353393554687
-11287.000000000000,-0.430564880371
-13302.000000000000,-0.507431030273
-15315.000000000000,-0.584220886230
-17325.000000000000,-0.660896301270
-19328.000000000000,-0.737304687500
-21329.000000000000,-0.813636779785
-23320.000000000000,-0.889587402344
-25311.000000000000,-0.965538024902
-27292.000000000000,-1.041107177734
-29269.000000000000,-1.116523742676
-31235.000000000000,-1.191520690918
-33197.000000000000,-1.266365051270
-35147.000000000000,-1.340751647949
-37086.000000000000,-1.414718627930
-39024.000000000000,-1.488647460937
-40941.000000000000,-1.561775207520
-42853.000000000000,-1.634712219238
-44756.000000000000,-1.707305908203
-46649.000000000000,-1.779518127441
-48519.000000000000,-1.850852966309
-50391.000000000000,-1.922264099121
-52242.000000000000,-1.992874145508
-54079.000000000000,-2.062950134277
-55903.000000000000,-2.132530212402
-57712.000000000000,-2.201538085937
-59507.000000000000,-2.270011901855
-61289.000000000000,-2.337989807129
-63057.000000000000,-2.405433654785
-64805.000000000000,-2.472114562988
-66535.000000000000,-2.538108825684
-68249.000000000000,-2.603492736816
-69949.000000000000,-2.668342590332
-71626.000000000000,-2.732315063477
-73292.000000000000,-2.795867919922
-74933.000000000000,-2.858467102051
-76555.000000000000,-2.920341491699
-78159.000000000000,-2.981529235840
-79743.000000000000,-3.041954040527
-81306.000000000000,-3.101577758789
-82848.000000000000,-3.160400390625
-84370.000000000000,-3.218460083008
-85870.000000000000,-3.275680541992
-87344.000000000000,-3.331909179687
-88797.000000000000,-3.387336730957
-90234.000000000000,-3.442153930664
-91642.000000000000,-3.495864868164
-93031.000000000000,-3.548851013184
-94389.000000000000,-3.600654602051
-95723.000000000000,-3.651542663574
-97040.000000000000,-3.701782226562
-98328.000000000000,-3.750915527344
-99592.000000000000,-3.799133300781
-100828.000000000000,-3.846282958984
-102041.000000000000,-3.892555236816
-103227.000000000000,-3.937797546387
-104384.000000000000,-3.981933593750
-105517.000000000000,-4.025154113770
-106621.000000000000,-4.067268371582
-107701.000000000000,-4.108467102051
-108752.000000000000,-4.148559570312
-109770.000000000000,-4.187393188477
-110767.000000000000,-4.225425720215
-111733.000000000000,-4.262275695801
-112671.000000000000,-4.298057556152
-113578.000000000000,-4.332656860352
-114458.000000000000,-4.366226196289
-115303.000000000000,-4.398460388184
-116127.000000000000,-4.429893493652
-116914.000000000000,-4.459915161133
-117680.000000000000,-4.489135742187
-118411.000000000000,-4.517021179199
-119109.000000000000,-4.543647766113
-119779.000000000000,-4.569206237793
-120420.000000000000,-4.593658447266
-121025.000000000000,-4.616737365723
-121602.000000000000,-4.638748168945
-122151.000000000000,-4.659690856934
-122661.000000000000,-4.679145812988
-123148.000000000000,-4.697723388672
-123596.000000000000,-4.714813232422
-124019.000000000000,-4.730949401855
-124405.000000000000,-4.745674133301
-124762.000000000000,-4.759292602539
-125086.000000000000,-4.771652221680
-125379.000000000000,-4.782829284668
-125637.000000000000,-4.792671203613
-125867.000000000000,-4.801445007324
-126064.000000000000,-4.808959960937
-126224.000000000000,-4.815063476562
-126358.000000000000,-4.820175170898
-126453.000000000000,-4.823799133301
-126519.000000000000,-4.826316833496
-126554.000000000000,-4.827651977539
-126556.000000000000,-4.827728271484
-126521.000000000000,-4.826393127441
-126459.000000000000,-4.824028015137
-126366.000000000000,-4.820480346680
-126233.000000000000,-4.815406799316
-126074.000000000000,-4.809341430664
-125883.000000000000,-4.802055358887
-125654.000000000000,-4.793319702148
-125397.000000000000,-4.783515930176
-125108.000000000000,-4.772491455078
-124785.000000000000,-4.760169982910
-124432.000000000000,-4.746704101562
-124047.000000000000,-4.732017517090
-123630.000000000000,-4.716110229492
-123181.000000000000,-4.698982238770
-122699.000000000000,-4.680595397949
-122184.000000000000,-4.660949707031
-121641.000000000000,-4.640235900879
-121066.000000000000,-4.618301391602
-120460.000000000000,-4.595184326172
-119824.000000000000,-4.570922851562
-119158.000000000000,-4.545516967773
-118462.000000000000,-4.518966674805
-117732.000000000000,-4.491119384766
-116971.000000000000,-4.462089538574
-116185.000000000000,-4.432106018066
-115365.000000000000,-4.400825500488
-114515.000000000000,-4.368400573730
-113640.000000000000,-4.335021972656
-112734.000000000000,-4.300460815430
-111800.000000000000,-4.264831542969
-110835.000000000000,-4.228019714355
-109842.000000000000,-4.190139770508
-108822.000000000000,-4.151229858398
-107774.000000000000,-4.111251831055
-106698.000000000000,-4.070205688477
-105595.000000000000,-4.028129577637
-104467.000000000000,-3.985099792480
-103307.000000000000,-3.940849304199
-102124.000000000000,-3.895721435547
-100911.000000000000,-3.849449157715
-99680.000000000000,-3.802490234375
-98418.000000000000,-3.754348754883
-97132.000000000000,-3.705291748047
-95820.000000000000,-3.655242919922
-94484.000000000000,-3.604278564453
-93124.000000000000,-3.552398681641
-91739.000000000000,-3.499565124512
-90335.000000000000,-3.446006774902
-88900.000000000000,-3.391265869141
-87453.000000000000,-3.336067199707
-85971.000000000000,-3.279533386230
-84477.000000000000,-3.222541809082
-82955.000000000000,-3.164482116699
-81413.000000000000,-3.105659484863
-79851.000000000000,-3.046073913574
-78272.000000000000,-2.985839843750
-76669.000000000000,-2.924690246582
-75047.000000000000,-2.862815856934
-73407.000000000000,-2.800254821777
-71743.000000000000,-2.736778259277
-70063.000000000000,-2.672691345215
-68371.000000000000,-2.608146667480
-66661.000000000000,-2.542915344238
-64927.000000000000,-2.476768493652
-63181.000000000000,-2.410163879395
-61414.000000000000,-2.342758178711
-59636.000000000000,-2.274932861328
-57840.000000000000,-2.206420898437
-56031.000000000000,-2.137413024902
-54206.000000000000,-2.067794799805
-52370.000000000000,-1.997756958008
-50519.000000000000,-1.927146911621
-48656.000000000000,-1.856079101562
-46777.000000000000,-1.784400939941
-44890.000000000000,-1.712417602539
-42987.000000000000,-1.639823913574
-41077.000000000000,-1.566963195801
-39157.000000000000,-1.493721008301
-37225.000000000000,-1.420021057129
-35282.000000000000,-1.345901489258
-33332.000000000000,-1.271514892578
-31377.000000000000,-1.196937561035
-29405.000000000000,-1.121711730957
-27434.000000000000,-1.046524047852
-25449.000000000000,-0.970802307129
-23464.000000000000,-0.895080566406
-21469.000000000000,-0.818977355957
-19471.000000000000,-0.742759704590
-17466.000000000000,-0.666275024414
-15456.000000000000,-0.589599609375
-13445.000000000000,-0.512886047363
-11426.000000000000,-0.435867309570
-9409.000000000000,-0.358924865723
-7384.000000000000,-0.281677246094
-5363.000000000000,-0.204582214355
-3339.000000000000,-0.127372741699
-1314.000000000000,-0.050125122070
713.000000000000,0.027198791504
2740.000000000000,0.104522705078
4766.000000000000,0.181808471680
6791.000000000000,0.259056091309
8815.000000000000,0.336265563965
10834.000000000000,0.413284301758
12850.000000000000,0.490188598633
14864.000000000000,0.567016601562
16876.000000000000,0.643768310547
18879.000000000000,0.720176696777
20880.000000000000,0.796508789062
22876.000000000000,0.872650146484
24867.000000000000,0.948600769043
26850.000000000000,1.024246215820
28825.000000000000,1.099586486816
30794.000000000000,1.174697875977
32755.000000000000,1.249504089355
34712.000000000000,1.324157714844
36650.000000000000,1.398086547852
38589.000000000000,1.472053527832
40512.000000000000,1.545410156250
42424.000000000000,1.618347167969
44330.000000000000,1.691055297852
46220.000000000000,1.763153076172
48099.000000000000,1.834831237793
49970.000000000000,1.906204223633
51824.000000000000,1.976928710937
53663.000000000000,2.047080993652
55494.000000000000,2.116928100586
57305.000000000000,2.186012268066
59107.000000000000,2.254753112793
60892.000000000000,2.322845458984
62661.000000000000,2.390327453613
64409.000000000000,2.457008361816
66142.000000000000,2.523117065430
67869.000000000000,2.588996887207
69567.000000000000,2.653770446777
71251.000000000000,2.718009948730
72914.000000000000,2.781448364258
74559.000000000000,2.844200134277
76192.000000000000,2.906494140625
77796.000000000000,2.967681884766
79384.000000000000,3.028259277344
80952.000000000000,3.088073730469
82499.000000000000,3.147087097168
84025.000000000000,3.205299377441
85530.000000000000,3.262710571289
87013.000000000000,3.319282531738
88471.000000000000,3.374900817871
89909.000000000000,3.429756164551
91325.000000000000,3.483772277832
92716.000000000000,3.536834716797
94083.000000000000,3.588981628418
95423.000000000000,3.640098571777
96740.000000000000,3.690338134766
98035.000000000000,3.739738464355
99307.000000000000,3.788261413574
100548.000000000000,3.835601806641
101766.000000000000,3.882064819336
102956.000000000000,3.927459716797
104121.000000000000,3.971900939941
105259.000000000000,4.015312194824
106371.000000000000,4.057731628418
107456.000000000000,4.099121093750
108509.000000000000,4.139289855957
109536.000000000000,4.178466796875
110538.000000000000,4.216690063477
111508.000000000000,4.253692626953
112455.000000000000,4.289817810059
113368.000000000000,4.324645996094
114253.000000000000,4.358406066895
115110.000000000000,4.391098022461
115937.000000000000,4.422645568848
116729.000000000000,4.452857971191
117499.000000000000,4.482231140137
118238.000000000000,4.510421752930
118945.000000000000,4.537391662598
119622.000000000000,4.563217163086
120267.000000000000,4.587821960449
120880.000000000000,4.611206054687
121465.000000000000,4.633522033691
122016.000000000000,4.654541015625
122538.000000000000,4.674453735352
123027.000000000000,4.693107604980
123489.000000000000,4.710731506348
123915.000000000000,4.726982116699
124312.000000000000,4.742126464844
124672.000000000000,4.755859375000
125003.000000000000,4.768486022949
125299.000000000000,4.779777526855
125568.000000000000,4.790039062500
125802.000000000000,4.798965454102
126006.000000000000,4.806747436523
126174.000000000000,4.813156127930
126312.000000000000,4.818420410156
126420.000000000000,4.822540283203
126491.000000000000,4.825248718262
126534.000000000000,4.826889038086
126540.000000000000,4.827117919922
126513.000000000000,4.826087951660
126462.000000000000,4.824142456055
126370.000000000000,4.820632934570
126251.000000000000,4.816093444824
126094.000000000000,4.810104370117
125908.000000000000,4.803009033203
125687.000000000000,4.794578552246
125437.000000000000,4.785041809082
125155.000000000000,4.774284362793
124841.000000000000,4.762306213379
124494.000000000000,4.749069213867
124113.000000000000,4.734535217285
123702.000000000000,4.718856811523
123260.000000000000,4.701995849609
122786.000000000000,4.683914184570
122282.000000000000,4.664688110352
121743.000000000000,4.644126892090
121177.000000000000,4.622535705566
120578.000000000000,4.599685668945
119949.000000000000,4.575691223145
119288.000000000000,4.550476074219
118594.000000000000,4.524002075195
117874.000000000000,4.496536254883
117123.000000000000,4.467887878418
116339.000000000000,4.437980651855
115528.000000000000,4.407043457031
114682.000000000000,4.374771118164
113817.000000000000,4.341773986816
112916.000000000000,4.307403564453
111984.000000000000,4.271850585937
111030.000000000000,4.235458374023
110043.000000000000,4.197807312012
109031.000000000000,4.159202575684
107987.000000000000,4.119377136230
106915.000000000000,4.078483581543
105819.000000000000,4.036674499512
104690.000000000000,3.993606567383
103542.000000000000,3.949813842773
102364.000000000000,3.904876708984
101164.000000000000,3.859100341797
99930.000000000000,3.812026977539
98675.000000000000,3.764152526855
97395.000000000000,3.715324401855
96087.000000000000,3.665428161621
94757.000000000000,3.614692687988
93404.000000000000,3.563079833984
92022.000000000000,3.510360717773
90621.000000000000,3.456916809082
89195.000000000000,3.402519226074
87747.000000000000,3.347282409668
86277.000000000000,3.291206359863
84782.000000000000,3.234176635742
83271.000000000000,3.176536560059
81731.000000000000,3.117790222168
80176.000000000000,3.058471679687
78598.000000000000,2.998275756836
77000.000000000000,2.937316894531
75383.000000000000,2.875633239746
73745.000000000000,2.813148498535
72086.000000000000,2.749862670898
70413.000000000000,2.686042785645
68720.000000000000,2.621459960937
67010.000000000000,2.556228637695
65282.000000000000,2.490310668945
63540.000000000000,2.423858642578
61779.000000000000,2.356681823730
60002.000000000000,2.288894653320
58210.000000000000,2.220535278320
56407.000000000000,2.151756286621
54586.000000000000,2.082290649414
52749.000000000000,2.012214660645
50903.000000000000,1.941795349121
49040.000000000000,1.870727539062
47164.000000000000,1.799163818359
45280.000000000000,1.727294921875
43381.000000000000,1.654853820801
41473.000000000000,1.582069396973
39549.000000000000,1.508674621582
37623.000000000000,1.435203552246
35685.000000000000,1.361274719238
33737.000000000000,1.286964416504
31781.000000000000,1.212348937988
29816.000000000000,1.137390136719
27840.000000000000,1.062011718750
25861.000000000000,0.986518859863
23873.000000000000,0.910682678223
21883.000000000000,0.834770202637
19882.000000000000,0.758438110352
17882.000000000000,0.682144165039
15869.000000000000,0.605354309082
13862.000000000000,0.528793334961
11849.000000000000,0.452003479004
9827.000000000000,0.374870300293
7804.000000000000,0.297698974609
5781.000000000000,0.220527648926
3759.000000000000,0.143394470215
1733.000000000000,0.066108703613
-295.000000000000,-0.011253356934
-2318.000000000000,-0.088424682617
-4347.000000000000,-0.165824890137
-6371.000000000000,-0.243034362793
-8394.000000000000,-0.320205688477
-10413.000000000000,-0.397224426270
-12429.000000000000,-0.474128723145
-14446.000000000000,-0.551071166992
-16458.000000000000,-0.627822875977
-18465.000000000000,-0.704383850098
-20467.000000000000,-0.780754089355
-22465.000000000000,-0.856971740723
-24456.000000000000,-0.932922363281
-26441.000000000000,-1.008644104004
-28421.000000000000,-1.084175109863
-30389.000000000000,-1.159248352051
-32352.000000000000,-1.234130859375
-34304.000000000000,-1.308593750000
-36253.000000000000,-1.382942199707
-38189.000000000000,-1.456794738770
-40113.000000000000,-1.530189514160
-42031.000000000000,-1.603355407715
-43938.000000000000,-1.676101684570
-45831.000000000000,-1.748313903809
